time_hours,phase,reduced_phase,target_phase,zeitgeber
0.0,3.1616406831992085,3.1616406831992085,0.0,0.08846865976517934
0.16666666666666666,3.028927958477929,3.194031985183545,0.04363323129985824,0.08138945183070634
0.3333333333333333,2.897597025702815,3.2261601004031335,0.08726646259971647,0.07469310791099375
0.5,2.7746398313389964,3.258052296038444,0.1308996938995747,0.06837762587560792
0.6666666666666666,2.6649138602399725,3.289736182460591,0.17453292519943295,0.06243914073454873
0.8333333333333333,2.57061876458473,3.3212395610388525,0.21816615649929116,0.05687200126975234
1.0,2.491792312200894,3.3525902842893656,0.2617993877991494,0.05166887298315787
1.1666666666666665,2.427242521598305,3.3838161291983146,0.3054326190990076,0.04719770543762793
1.3333333333333333,2.375192168377643,3.414958965051184,0.3490658503988659,0.043079906197712826
1.5,2.333722070915221,3.446046229878603,0.39269908169872414,0.03931256770656191
1.6666666666666665,2.3010783922640123,3.477105281252163,0.43633231299858233,0.03589189182570518
1.8333333333333333,2.275754035819585,3.5081633194426236,0.47996554429844057,0.032813461097526905
2.0,2.256494957964276,3.5392473243989415,0.5235987755982988,0.030072510324208535
2.1666666666666665,2.242274653762916,3.5703840055262503,0.567232006898157,0.02766419416748919
2.333333333333333,2.232259043383375,3.601599762952123,0.6108652381980152,0.025583846747629393
2.5,2.2257718279553296,3.632920658709654,0.6544984694978736,0.023827229525943603
2.6666666666666665,2.2222641451919807,3.664372396033188,0.6981317007977318,0.02239076408029566
2.833333333333333,2.221289441814285,3.6959803047578013,0.74176493209759,0.02127174671546033
3.0,2.2224823882249027,3.727769330637035,0.7853981633974483,0.020468542180354547
3.1666666666666665,2.2255921036553383,3.7597640262453473,0.8290313946973065,0.02081537543365266
3.333333333333333,2.2304076510972006,3.7920150916205637,0.8726646259971647,0.02148729526055799
3.5,2.2367153464434515,3.8245455021668424,0.916297857297023,0.02249548832531845
3.6666666666666665,2.244341110493716,3.857377963010403,0.9599310885968811,0.023852761122898483
3.833333333333333,2.2531435296876468,3.890534847286866,1.0035643198967394,0.02557361203782566
4.0,2.2630084065770917,3.9240381195687033,1.0471975511965976,0.027674270509118564
4.166666666666666,2.273844479376905,3.9579092415899266,1.0908307824964558,0.03017270187411501
4.333333333333333,2.285580038216457,3.9921690575432405,1.134464013796314,0.03308857668481368
4.5,2.2981602304531954,4.026837656424571,1.1780972450961724,0.036443203514488404
4.666666666666666,2.3115448961628626,4.061934209193714,1.2217304763960304,0.040259424507147035
4.833333333333333,2.325706811588889,4.097476778921313,1.2653637076958888,0.044561473175359356
5.0,2.3406302459467345,4.133482102615406,1.3089969389957472,0.04937479423027725
5.166666666666666,2.3563097578376744,4.169965344078731,1.3526301702956054,0.05472582553784138
5.333333333333333,2.3727491733558863,4.206939817952524,1.3962634015954636,0.060641742642653124
5.5,2.389960700060599,4.244416686062125,1.4398966328953218,0.06715016668979022
5.666666666666666,2.407964140292541,4.2824046282975905,1.48352986419518,0.07427883700721603
5.833333333333333,2.4267861745598625,4.32090949153457,1.5271630954950384,0.08205525008760424
6.0,2.4464596914423082,4.359933921513121,1.5707963267948966,0.09050626722641066
6.166666666666666,2.4670231450690965,4.39947698411865,1.6144295580947547,0.09965769362857028
6.333333333333333,2.488519925019429,4.439533784108888,1.658062789394613,0.10953383238259815
6.5,2.5109977266996872,4.480095090946279,1.7016960206944713,0.12015701730910795
6.666666666666666,2.534507913028908,4.521146982951322,1.7453292519943293,0.13154712930957174
6.833333333333333,2.55910486072061,4.562670522396906,1.7889624832941877,0.14372110145722725
7.0,2.5848452866419755,4.604641475309094,1.832595714594046,0.15669241867033198
7.166666666666666,2.611787551672678,4.6470300905079025,1.876228945893904,0.170470618371987
7.333333333333333,2.639990941142882,4.689800952690315,1.9198621771937623,0.18506079905300185
7.5,2.669514922229124,4.732912924010599,1.9634954084936205,0.20046314409673513
7.666666666666666,2.7004183795162486,4.77631918755067,2.007128639793479,0.2166724685794824
7.833333333333333,2.732758830153318,4.819967404226868,2.050761871093337,0.23367779700929828
8.0,2.7665916024559998,4.8637999920238295,2.0943951023931953,0.2514619800937698
8.166666666666666,2.8019700299640626,4.907754533011326,2.1380283336930535,0.2700238725454947
8.333333333333332,2.838943599942039,4.951764138874725,2.1816615649929116,0.2893114134594832
8.5,2.8775562369125116,4.995758369679393,2.2252947962927703,0.30928807011813947
8.666666666666666,2.917846313102324,5.039663914017899,2.268928027592628,0.3299101992948753
8.833333333333332,2.959845679826598,5.083405467115439,2.312561258892486,0.35112699910805345
9.0,3.003578623429471,5.126906694988659,2.356194490192345,0.37288054332852816
9.166666666666666,3.0490607227392017,5.170091262540717,2.399827721492203,0.39510590297056053
9.333333333333332,3.0962975835026603,5.212883900271157,2.4434609527920608,0.4177313588363562
9.5,3.145283428762262,5.255211482194473,2.4870941840919194,0.4406787073803215
9.666666666666666,3.1959995336760527,5.297004086754608,2.5307274153917776,0.4638636608291183
9.833333333333332,3.2484125105214567,5.3381960130562485,2.574360646691636,0.4871963409605647
10.0,3.302472475677983,5.378726726567042,2.6179938779914944,0.5105818643349678
10.166666666666666,3.3581111652709548,5.418541711437891,2.6616271092913526,0.5339210151164909
10.333333333333332,3.4152401081816848,5.457593210517705,2.705260340591211,0.5571109999522137
10.5,3.47374901032648,5.495840838721206,2.748893571891069,0.5800462777272293
10.666666666666666,3.533504545965,5.533252060329991,2.792526803190927,0.6026194554212944
10.833333333333332,3.594349781519676,5.569802525754757,2.836160034490785,0.6247222397924297
11.0,3.656104464957156,5.605476267975333,2.8797932657906435,0.646246433241211
11.166666666666666,3.718566389955863,5.64026576306997,2.9234264970905017,0.6670849610006876
11.333333333333332,3.781513983099524,5.674171862775653,2.96705972839036,0.6871329157829741
11.5,3.8447101647411204,5.707203609786098,3.010692959690218,0.70628860522348
11.666666666666666,3.9079074087753773,5.739377948460652,3.0543261909900767,0.7244545869224314
11.833333333333332,3.970853790394097,5.770719344811289,3.0979594222899345,0.7415386756109494
12.0,4.033299686675871,5.801259330128813,3.141592653589793,0.7574549069803267
12.166666666666666,4.095004705950191,5.831035982507456,3.185225884889651,0.7721244430172096
12.333333333333332,4.155744386294721,5.860093359950594,3.2288591161895095,0.7854764042868255
12.5,4.215316228883206,5.888480897815159,3.272492347489368,0.797448615497301
12.666666666666666,4.27354471318555,5.916252782197814,3.316125578789226,0.8079882518501236
12.833333333333332,4.330285062076626,5.943467309588078,3.3597588100890836,0.8170523751179265
13.0,4.385425663036182,5.970186241800124,3.4033920413889427,0.8246083500678582
13.166666666666666,4.438889183534794,5.996474163914016,3.447025272688801,0.8306341337378158
13.333333333333332,4.490632525808182,6.02239785175724,3.4906585039886586,0.8351184321394283
13.5,4.540645837727119,6.048025654369546,3.5342917352885173,0.8380607211669295
13.666666666666666,4.588950829855863,6.073426895934449,3.5779249665883754,0.8394711307922372
13.833333333333332,4.635598648211757,6.098671300833635,3.6215581978882336,0.8393701939779793
14.0,4.680667525835322,6.123828444781877,3.665191429188092,0.837788464094337
14.166666666666666,4.72426039345957,6.14896723441981,3.70882466048795,0.8347660069339864
14.333333333333332,4.766502578904982,6.174155417266805,3.752457891787808,0.8303517756338706
14.5,4.807539672865248,6.199459123550974,3.796091123087667,0.8246028788861366
14.666666666666666,4.847535589613771,6.224942441122686,3.8397243543875246,0.8175837547087559
14.833333333333332,4.886670806752062,6.250667024406523,3.8833575856873828,0.8093652637079983
15.0,4.92514072862488,6.276691738139916,3.926990816987241,0.800023717163279
15.166666666666666,4.9631540825456195,0.01988702929146058,3.9706240482870996,0.7896398563685136
15.333333333333332,5.000931224173921,0.04667587065146437,4.014257279586958,0.7782978004475665
15.5,5.0387021971351516,0.07392166866443062,4.057890510886816,0.76608398030604
15.666666666666666,5.076704362019165,0.10166927920202377,4.101523742186674,0.7530860764761139
15.833333333333332,5.11517938264848,0.12995952351749818,4.145156973486532,0.7393919783516613
16.0,5.154369336928528,0.1588290471979011,4.1887902047863905,0.7250887817015439
16.166666666666664,5.194511713201241,0.18831021444666898,4.232423436086249,0.7102618404017778
16.333333333333332,5.23583307273869,0.21843103694764782,4.276056667386107,0.6949938870618498
16.5,5.278541221366457,0.24921513626515404,4.319689898685966,0.6793642356639582
16.666666666666664,5.322815858003119,0.28068173840644034,4.363323129985823,0.6634480775202299
16.833333333333332,5.368797874106556,0.3128456988205309,4.4069563612856815,0.6473158798221679
17.0,5.4165777756139,0.3457175557432989,4.4505895925855405,0.6310328938540727
17.166666666666664,5.466184076495146,0.37930360943969865,4.494222823885398,0.6146587776175878
17.333333333333332,5.517572923062426,0.413606024560815,4.537856055185256,0.5982473352206348
17.5,5.570620557030216,0.44862295254924656,4.581489286485115,0.581846372975408
17.666666666666664,5.62512037805129,0.4843486708158367,4.625122517784972,0.5654976697818951
17.833333333333332,5.680786178047205,0.5207737352976481,4.6687557490848315,0.5492370570998151
18.0,5.737262494957649,0.5578851430123336,4.71238898038469,0.5330946016848417
18.166666666666664,5.794141998443964,0.5956665013635297,4.756022211684548,0.5170948823327723
18.333333333333332,5.850988564892799,0.634098201234162,4.799655442984406,0.5012573501812906
18.5,5.907363551093587,0.6731575913293376,4.843288674284264,0.48559676070031776
18.666666666666664,5.962852089114402,0.7128191517873136,4.8869219055841215,0.4701236643887201
18.833333333333332,6.017086229168269,0.7530546657446151,4.930555136883981,0.454844942409398
19.0,6.069762450710696,0.7938333882882578,4.974188368183839,0.43976437294992876
19.166666666666664,6.120652211816345,0.8351222130135783,5.017821599483697,0.4248832139963903
19.333333333333332,6.169605458738127,0.8768858371826833,5.061454830783555,0.41020078844907826
19.5,6.216548046022936,0.9190869271943481,5.105088062083413,0.39571505807687113
19.666666666666664,6.261474635192545,0.9616862866790448,5.148721293383272,0.3814231736797864
19.833333333333332,0.02125351603540607,1.0046430299736142,5.19235452468313,0.36732198997682175
20.0,0.06235678975308174,1.0479147639672952,5.235987755982989,0.3534085351215057
20.166666666666664,0.10173755384397387,1.0914577813137003,5.279620987282846,0.3396804263280223
20.333333333333332,0.13956107177883448,1.1352272677552828,5.323254218582705,0.32613622481921034
20.5,0.1760107842393575,1.1791775258078254,5.3668874498825625,0.3127757251340798
20.666666666666664,0.2112811743136262,1.2232622163199205,5.410520681182422,0.2996001757052059
20.833333333333332,0.2455721446109636,1.2674346184909837,5.45415391248228,0.28661242948413307
21.0,0.27908474820495865,1.3116479078515348,5.497787143782138,0.2738170252060384
21.166666666666664,0.3120180541060083,1.3558554505444196,5.541420375081995,0.26122020159686643
21.333333333333332,0.34456690896495434,1.4000111110668416,5.585053606381854,0.24882984839495664
21.5,0.3769203632139831,1.444069569515581,5.6286868376817125,0.2366553994484664
21.666666666666664,0.4092605495752541,1.487986643394426,5.67232006898157,0.22470767432987876
21.833333333333332,0.4417618267679117,1.5317196082586622,5.715953300281428,0.21299867585715015
22.0,0.4745900267369227,1.5752275109390006,5.759586531581287,0.2015413516128397
22.166666666666664,0.5079016678101593,1.6184714688423687,5.803219762881145,0.19034932800105725
22.333333333333332,0.5418430186895193,1.661414948886111,5.8468529941810035,0.17943662557824042
22.5,0.5765489201835624,1.7040240199819587,5.8904862254808625,0.16881736434598543
22.666666666666664,0.6121412950183396,1.7462675736239137,5.93411945678072,0.15850546741759763
22.833333333333332,0.6487273033357509,1.788117508010231,5.977752688080578,0.14851437098589565
23.0,0.6863971351417748,1.8295488721912523,6.021385919380436,0.13885674785428112
23.166666666666664,0.7252214731758101,1.8705399679203913,6.065019150680295,0.12954425097627142
23.333333333333332,0.7652487115905175,1.9110724081298098,6.1086523819801535,0.12058728251344522
23.5,0.8065020767417854,1.9511311321911644,6.152285613280012,0.11199479290237316
23.666666666666664,0.8489768627610741,1.990704379296446,6.195918844579869,0.10377411335225648
23.833333333333332,0.8926380592819211,2.02978362235434,6.239552075879728,0.09593082411049501
24.0,0.9374187007389112,2.068363465704909,0.0,0.08846865976517934
24.166666666666664,0.9832192920477624,2.106441510683231,0.04363323129985761,0.08138945183070645
24.333333333333332,1.0299086494911076,2.1440181935967866,0.08726646259971617,0.07469310791099378
24.5,1.0773264266864133,2.1810966010195374,0.1308996938995747,0.06837762587560792
24.666666666666664,1.1252874698748863,2.217682267455491,0.17453292519943234,0.062439140734548856
24.833333333333332,1.1735879727513028,2.253782960401917,0.21816615649929086,0.05687200126975236
25.0,1.2220132549940543,2.2894084576691442,0.2617993877991494,0.05166887298315787
25.166666666666664,1.2703437760565524,2.3245703215156213,0.30543261909900704,0.047197705437628
25.333333333333332,1.3183687356845086,2.359291741355745,0.34906585039886556,0.04307990619771283
25.5,1.3658971404261195,2.3935880577345214,0.39269908169872414,0.03931256770656191
25.666666666666664,1.4127632825320662,2.4274759575884324,0.4363323129985817,0.03589189182570524
25.833333333333332,1.4588341736759882,2.4609733076573734,0.4799655442984403,0.032813461097526905
26.0,1.5040153717073619,2.4940990006997734,0.5235987755982988,0.030072510324208535
26.166666666666664,1.5482550240457629,2.526872816564393,0.5672320068981564,0.027664194167489223
26.333333333333332,1.5915461357758953,2.5593152995825816,0.610865238198015,0.025583846747629393
26.5,1.6339272123457333,2.5914476531872643,0.6544984694978736,0.023827229525943603
26.666666666666664,1.6754815111290458,2.623291652147653,0.6981317007977311,0.022390764080295694
26.833333333333332,1.7163351586710764,2.6548695723364535,0.7417649320975898,0.02127174671546033
27.0,1.7566543088226607,2.6862041375214463,0.7853981633974483,0.020468542180354547
27.166666666666664,1.7966449111628395,2.7173184822957808,0.8290313946973059,0.020815375433652666
27.333333333333332,1.8365463225141136,2.748265821174781,0.8726646259971645,0.02148729526055799
27.5,1.8766226508287256,2.7790710176212086,0.916297857297023,0.02249548832531845
27.666666666666664,1.9171591616881642,2.8097595857118507,0.9599310885968806,0.023852761122898476
27.833333333333332,1.958454954339976,2.840357718922367,1.0035643198967392,0.02557361203782566
28.0,2.000813891451757,2.870892323825635,1.0471975511965976,0.027674270509118564
28.166666666666664,2.044533351796567,2.901391056391361,1.0908307824964554,0.030172701874114957
28.333333333333332,2.089890439707128,2.931882358361623,1.134464013796314,0.03308857668481368
28.5,2.137125496581302,2.9623954909804984,1.1780972450961724,0.036443203514488404
28.666666666666664,2.186423169501285,2.9929605631745106,1.22173047639603,0.04025942450714701
28.833333333333332,2.237891934290895,3.0236085511137167,1.2653637076958886,0.044561473175359356
29.0,2.291543821671616,3.0543713059315585,1.3089969389957472,0.04937479423027725
29.166666666666664,2.3472770261297677,3.085281546247141,1.3526301702956047,0.05472582553784133
29.333333333333332,2.4048648178141443,3.116372832020159,1.3962634015954631,0.06064174264265308
29.5,2.4639543412767813,3.1476795161821047,1.4398966328953218,0.06715016668979022
29.666666666666664,2.524078090984033,3.179236670435796,1.4835298641951795,0.07427883700721596
29.833333333333332,2.5846789488274307,3.2110799816093856,1.5271630954950381,0.08205525008760418
30.0,2.6451469436133377,3.2432456150045184,1.5707963267948966,0.09050626722641066
30.166666666666664,2.7048631199316286,3.275770041308026,1.614429558094754,0.0996576936285702
30.333333333333332,2.7632440771612923,3.3086898238623275,1.6580627893946127,0.10953383238259812
30.5,2.8197805891079213,3.3420413634348076,1.7016960206944713,0.12015701730910795
30.666666666666664,2.8740653028250867,3.3758605981166885,1.745329251994329,0.1315471293095717
30.833333333333332,2.925807199280603,3.4101826566453,1.7889624832941875,0.14372110145722722
31.0,2.974833293406681,3.4450414643090994,1.832595714594046,0.15669241867033198
31.166666666666664,3.02108012234484,3.4804693016902655,1.8762289458939037,0.17047061837198682
31.333333333333332,3.0645785456275947,3.5164963178496973,1.919862177193762,0.18506079905300182
31.5,3.1054353534395602,3.553150001181533,1.9634954084936205,0.20046314409673513
31.666666666666664,3.1438145085215146,3.5904546130656736,2.0071286397934784,0.21667246857948222
31.833333333333332,3.1799199301387713,3.6284305916179695,2.050761871093337,0.23367779700929817
32.0,3.2139808483940744,3.6670939352481127,2.0943951023931953,0.2514619800937698
32.166666666666664,3.2462405694567718,3.7064555783270547,2.138028333693053,0.2700238725454945
32.33333333333333,3.2769471117464195,3.7465215162731584,2.1816615649929108,0.2893114134594828
32.5,3.306346507796651,3.787290719800329,2.2252947962927703,0.30928807011813947
32.666666666666664,3.3346789772551366,3.8287553590793624,2.268928027592628,0.3299101992948751
32.83333333333333,3.3621762731777256,3.8709003199718577,2.3125612588924853,0.35112699910805295
33.0,3.389060239765787,3.9137028105657468,2.356194490192345,0.37288054332852816
33.166666666666664,3.4155422333822325,3.957132081944849,2.3998277214922026,0.3951059029705603
33.33333333333333,3.4418231223628406,4.001149286572913,2.44346095279206,0.4177313588363557
33.5,3.468093639202472,4.045707495816143,2.4870941840919194,0.4406787073803215
33.666666666666664,3.494534906838254,4.090751894822674,2.530727415391777,0.463863660829118
33.83333333333333,3.521318998129364,4.136220168168858,2.574360646691635,0.4871963409605642
34.0,3.5486094150715743,4.182043083435156,2.6179938779914944,0.5105818643349678
34.166666666666664,3.576561393421491,4.228145272391688,2.6616271092913517,0.5339210151164906
34.33333333333333,3.605321951250318,4.274446201101816,2.7052603405912095,0.5571109999522131
34.5,3.6350296087145475,4.320861311470984,2.748893571891069,0.5800462777272293
34.666666666666664,3.6658137134299564,4.367303308159251,2.7925268031909263,0.6026194554212941
34.83333333333333,3.6977933139304757,4.413683556973069,2.8361600344907845,0.6247222397924294
35.0,3.7310755357651653,4.459913554477811,2.8797932657906435,0.646246433241211
35.166666666666664,3.765753434111524,4.505906424169811,2.9234264970905013,0.6670849610006874
35.33333333333333,3.8019033267475844,4.551578392511798,2.967059728390359,0.6871329157829736
35.5,3.839581654871548,4.5968501986685695,3.010692959690218,0.70628860522348
35.666666666666664,3.878821478482831,4.641648394857166,3.0543261909900763,0.7244545869224311
35.83333333333333,3.9196287874121203,4.685906499600679,3.0979594222899336,0.7415386756109491
36.0,3.9619788944103282,4.729565973406834,3.141592653589793,0.7574549069803267
36.166666666666664,4.005813263638776,4.772576994900955,3.185225884889651,0.7721244430172095
36.33333333333333,4.051037201299101,4.81489902457423,3.228859116189508,0.7854764042868253
36.5,4.097518874915766,4.856501152408294,3.272492347489368,0.797448615497301
36.666666666666664,4.145090112106761,4.8973622341173035,3.3161255787892254,0.8079882518501234
